# Time	[Z]	[mu2]	[mZ]	(R3).Flux	(R4).Flux	(R6).Flux	
0	709824	1329.83	960.41	1.52353e-10	5.04419e-11	6.64913e-11	
1e-09	709824	1329.83	960.41	1.52353e-10	5.04419e-11	6.64913e-11	
2e-09	709824	1329.83	960.41	1.52353e-10	5.04419e-11	6.64913e-11	
1.0002e-05	709824	1329.83	960.409	1.52353e-10	5.04419e-11	6.64913e-11	
2.0002e-05	709824	1329.83	960.408	1.52353e-10	5.04419e-11	6.64913e-11	
3.0002e-05	709824	1329.83	960.407	1.52353e-10	5.04419e-11	6.64913e-11	
0.000130002	709824	1329.83	960.396	1.52353e-10	5.04416e-11	6.64915e-11	
0.000230002	709824	1329.83	960.385	1.52353e-10	5.04413e-11	6.64917e-11	
0.000330002	709824	1329.84	960.374	1.52353e-10	5.0441e-11	6.64919e-11	
0.000430002	709824	1329.84	960.363	1.52353e-10	5.04407e-11	6.6492e-11	
0.00143	709824	1329.88	960.253	1.52353e-10	5.04377e-11	6.64938e-11	
0.00243	709824	1329.91	960.142	1.52353e-10	5.04347e-11	6.64956e-11	
0.00343	709824	1329.95	960.032	1.52353e-10	5.04317e-11	6.64973e-11	
0.00443	709824	1329.98	959.922	1.52353e-10	5.04287e-11	6.64991e-11	
0.01443	709823	1330.34	958.825	1.52353e-10	5.0399e-11	6.65168e-11	
0.02443	709822	1330.69	957.733	1.52354e-10	5.03695e-11	6.65346e-11	
0.03443	709819	1331.05	956.648	1.52354e-10	5.03403e-11	6.65523e-11	
0.04443	709816	1331.4	955.568	1.52354e-10	5.03114e-11	6.657e-11	
0.05443	709811	1331.76	954.494	1.52355e-10	5.02827e-11	6.65878e-11	
0.15443	709724	1335.31	944.07	1.52366e-10	5.00101e-11	6.67654e-11	
0.25443	709557	1338.87	934.195	1.52388e-10	4.97622e-11	6.69436e-11	
0.35443	709316	1342.44	924.839	1.52419e-10	4.95376e-11	6.71222e-11	
0.45443	709006	1346.02	915.975	1.52459e-10	4.93352e-11	6.73012e-11	
0.55443	708630	1349.61	907.575	1.52508e-10	4.91538e-11	6.74805e-11	
0.65443	708193	1353.2	899.614	1.52565e-10	4.89923e-11	6.76599e-11	
1.0889	705672	1368.82	869.568	1.52895e-10	4.84985e-11	6.84409e-11	
1.52338	702333	1384.42	845.704	1.5334e-10	4.82897e-11	6.92209e-11	
1.95785	698385	1399.93	826.69	1.53877e-10	4.8307e-11	6.99967e-11	
2.39233	693993	1415.32	811.48	1.54488e-10	4.85032e-11	7.07658e-11	
2.8268	689285	1430.53	799.253	1.55159e-10	4.88402e-11	7.15263e-11	
3.26128	684359	1445.54	789.367	1.5588e-10	4.92878e-11	7.2277e-11	
3.69575	679292	1460.34	781.317	1.56643e-10	4.98213e-11	7.3017e-11	
4.12983	674148	1474.9	774.714	1.5744e-10	5.04207e-11	7.37449e-11	
4.5639	668967	1489.23	769.24	1.58266e-10	5.10708e-11	7.44613e-11	
4.99798	663783	1503.32	764.655	1.59118e-10	5.17591e-11	7.51658e-11	
5.43205	658623	1517.17	760.769	1.5999e-10	5.24759e-11	7.58587e-11	
5.86613	653506	1530.8	757.433	1.60882e-10	5.32131e-11	7.654e-11	
6.3002	648449	1544.2	754.532	1.61789e-10	5.39647e-11	7.721e-11	
6.73428	643461	1557.38	751.975	1.62711e-10	5.47259e-11	7.7869e-11	
7.30051	637071	1574.26	749.041	1.63932e-10	5.57269e-11	7.87128e-11	
7.86675	630825	1590.79	746.453	1.6517e-10	5.67315e-11	7.95393e-11	
8.43298	624729	1606.99	744.124	1.66424e-10	5.77353e-11	8.03494e-11	
8.99922	618787	1622.88	741.991	1.67691e-10	5.87352e-11	8.11442e-11	
9.56545	612999	1638.49	740.007	1.6897e-10	5.97292e-11	8.19245e-11	
10.1317	607365	1653.83	738.138	1.70259e-10	6.07161e-11	8.26913e-11	
10.7747	601151	1670.93	736.125	1.71734e-10	6.1827e-11	8.35465e-11	
11.4176	595127	1687.73	734.203	1.73218e-10	6.29271e-11	8.43866e-11	
12.0606	589289	1704.25	732.352	1.74711e-10	6.40165e-11	8.52125e-11	
12.7036	583631	1720.51	730.558	1.76211e-10	6.50951e-11	8.60253e-11	
13.3466	578146	1736.52	728.813	1.77717e-10	6.61635e-11	8.68261e-11	
14.1055	571885	1755.14	726.804	1.79503e-10	6.74119e-11	8.77568e-11	
14.8645	565846	1773.47	724.843	1.81294e-10	6.86474e-11	8.86733e-11	
15.6234	560017	1791.53	722.922	1.8309e-10	6.98711e-11	8.95766e-11	
16.3824	554390	1809.36	721.037	1.84891e-10	7.10836e-11	9.0468e-11	
17.2577	548136	1829.65	718.902	1.86972e-10	7.24696e-11	9.14824e-11	
18.1331	542120	1849.67	716.805	1.89057e-10	7.38432e-11	9.24835e-11	
19.0084	536330	1869.45	714.741	1.91144e-10	7.52056e-11	9.34725e-11	
19.8838	530751	1889.01	712.707	1.93234e-10	7.65577e-11	9.44504e-11	
21.0311	523739	1914.34	710.083	1.95976e-10	7.83161e-11	9.57171e-11	
22.1784	517041	1939.37	707.502	1.9872e-10	8.00605e-11	9.69685e-11	
23.3257	510635	1964.12	704.96	2.01466e-10	8.17925e-11	9.82062e-11	
24.473	504496	1988.64	702.452	2.04216e-10	8.35138e-11	9.94319e-11	
26.5056	494213	2031.56	698.084	2.09095e-10	8.6541e-11	1.01578e-10	
28.5383	484603	2073.95	693.8	2.13989e-10	8.95456e-11	1.03698e-10	
30.5709	475575	2115.94	689.588	2.18905e-10	9.25342e-11	1.05797e-10	
32.6036	467051	2157.63	685.435	2.23853e-10	9.55129e-11	1.07882e-10	
34.6362	458964	2199.15	681.33	2.28842e-10	9.84877e-11	1.09957e-10	
35.4441	455858	2215.62	679.71	2.30839e-10	9.96704e-11	1.10781e-10	
36.252	452809	2232.09	678.095	2.32845e-10	1.00854e-10	1.11605e-10	
37.0599	449813	2248.56	676.485	2.34861e-10	1.02039e-10	1.12428e-10	
37.8678	446868	2265.05	674.879	2.36888e-10	1.03225e-10	1.13252e-10	
38.7131	443837	2282.31	673.203	2.3902e-10	1.04468e-10	1.14115e-10	
39.5584	440855	2299.6	671.53	2.41167e-10	1.05715e-10	1.1498e-10	
40.4037	437919	2316.92	669.86	2.43328e-10	1.06964e-10	1.15846e-10	
41.249	435027	2334.29	668.191	2.45505e-10	1.08217e-10	1.16714e-10	
43.0185	429101	2370.82	664.702	2.50117e-10	1.10855e-10	1.18541e-10	
44.7879	423331	2407.65	661.211	2.54814e-10	1.13515e-10	1.20382e-10	
46.5574	417696	2444.87	657.712	2.59607e-10	1.16205e-10	1.22243e-10	
48.3268	412179	2482.56	654.199	2.64507e-10	1.18929e-10	1.24128e-10	
50.6691	405025	2533.33	649.514	2.71182e-10	1.22596e-10	1.26667e-10	
51.2547	403260	2546.2	648.335	2.72888e-10	1.23526e-10	1.2731e-10	
51.8403	401502	2559.16	647.152	2.74609e-10	1.24461e-10	1.27958e-10	
52.4258	399752	2572.19	645.966	2.76347e-10	1.25401e-10	1.2861e-10	
53.0114	398009	2585.32	644.775	2.78102e-10	1.26348e-10	1.29266e-10	
53.7105	395937	2601.1	643.348	2.8022e-10	1.27486e-10	1.30055e-10	
54.4095	393873	2617.03	641.913	2.82364e-10	1.28633e-10	1.30851e-10	
55.1086	391817	2633.1	640.472	2.84535e-10	1.29791e-10	1.31655e-10	
57.2012	385698	2682.12	636.108	2.91209e-10	1.33317e-10	1.34106e-10	
59.2937	379619	2732.71	631.66	2.98168e-10	1.36947e-10	1.36636e-10	
61.3863	373558	2785.1	627.114	3.05451e-10	1.40695e-10	1.39255e-10	
63.4789	367495	2839.52	622.456	3.13095e-10	1.44577e-10	1.41976e-10	
64.9907	363104	2880.28	619.011	3.18869e-10	1.47473e-10	1.44014e-10	
66.5025	358694	2922.36	615.492	3.24875e-10	1.50454e-10	1.46118e-10	
68.0144	354259	2965.9	611.892	3.31133e-10	1.53528e-10	1.48295e-10	
69.5262	349792	3011.03	608.203	3.37666e-10	1.56701e-10	1.50552e-10	
70.237	347678	3032.85	606.436	3.4084e-10	1.5823e-10	1.51642e-10	
70.9479	345555	3055.07	604.647	3.44082e-10	1.59784e-10	1.52753e-10	
71.6587	343422	3077.71	602.835	3.47397e-10	1.61363e-10	1.53885e-10	
73.0594	339185	3123.61	599.195	3.54149e-10	1.64554e-10	1.5618e-10	
74.46	334899	3171.36	595.455	3.61215e-10	1.67857e-10	1.58568e-10	
75.8607	330559	3221.12	591.611	3.68623e-10	1.71281e-10	1.61056e-10	
77.2614	326157	3273.07	587.652	3.76401e-10	1.74832e-10	1.63654e-10	
78.6334	321782	3326.26	583.656	3.84408e-10	1.78445e-10	1.66313e-10	
80.0054	317336	3381.94	579.536	3.92832e-10	1.822e-10	1.69097e-10	
81.3774	312814	3440.31	575.284	4.01707e-10	1.86107e-10	1.72016e-10	
82.7494	308211	3501.62	570.891	4.11072e-10	1.90176e-10	1.75081e-10	
83.4099	305965	3532.25	568.724	4.15766e-10	1.92195e-10	1.76613e-10	
84.0703	303697	3563.66	566.522	4.20588e-10	1.94256e-10	1.78183e-10	
84.7308	301408	3595.86	564.283	4.25542e-10	1.9636e-10	1.79793e-10	
85.3912	299096	3628.91	562.006	4.30633e-10	1.98507e-10	1.81445e-10	
85.9121	297257	3655.58	560.184	4.34749e-10	2.00233e-10	1.82779e-10	
86.433	295404	3682.82	558.337	4.38957e-10	2.01987e-10	1.84141e-10	
86.9539	293535	3710.63	556.466	4.43259e-10	2.03771e-10	1.85531e-10	
88.2358	288871	3781.65	551.751	4.54265e-10	2.08289e-10	1.89082e-10	
89.5178	284111	3856.59	546.876	4.65901e-10	2.13001e-10	1.9283e-10	
90.7997	279249	3935.78	541.834	4.78214e-10	2.17914e-10	1.96789e-10	
92.0817	274284	4019.55	536.62	4.91249e-10	2.23039e-10	2.00978e-10	
92.6819	271922	4060.45	534.117	4.97613e-10	2.25514e-10	2.03023e-10	
93.2821	269535	4102.48	531.575	5.04152e-10	2.28038e-10	2.05124e-10	
93.8822	267125	4145.68	528.993	5.10869e-10	2.30612e-10	2.07284e-10	
94.4824	264690	4190.09	526.37	5.17769e-10	2.33237e-10	2.09505e-10	
95.1065	262131	4237.6	523.6	5.25145e-10	2.36021e-10	2.1188e-10	
95.7306	259545	4286.52	520.785	5.32729e-10	2.38862e-10	2.14326e-10	
96.3548	256932	4336.91	517.925	5.40528e-10	2.41761e-10	2.16845e-10	
96.9789	254291	4388.8	515.02	5.48546e-10	2.44717e-10	2.1944e-10	
97.603	251622	4442.26	512.07	5.56788e-10	2.47732e-10	2.22113e-10	
98.2271	248926	4497.34	509.076	5.65258e-10	2.50805e-10	2.24867e-10	
98.8512	246203	4554.1	506.037	5.73961e-10	2.53937e-10	2.27705e-10	
99.3366	244065	4599.44	503.643	5.80892e-10	2.56414e-10	2.29972e-10	
99.822	241911	4645.86	501.222	5.87967e-10	2.58926e-10	2.32293e-10	
100.307	239741	4693.37	498.776	5.95187e-10	2.61474e-10	2.34669e-10	
100.793	237554	4742.02	496.303	6.02554e-10	2.64056e-10	2.37101e-10	
101.356	234998	4799.9	493.403	6.11285e-10	2.67096e-10	2.39995e-10	
101.919	232419	4859.37	490.469	6.20213e-10	2.70183e-10	2.42969e-10	
102.482	229820	4920.49	487.503	6.29341e-10	2.73315e-10	2.46024e-10	
103.045	227200	4983.28	484.505	6.38666e-10	2.76491e-10	2.49164e-10	
103.74	223941	5063.11	480.765	6.50442e-10	2.8047e-10	2.53156e-10	
104.435	220652	5145.62	476.981	6.62512e-10	2.84512e-10	2.57281e-10	
105.13	217335	5230.88	473.157	6.74871e-10	2.88616e-10	2.61544e-10	
105.824	213992	5318.94	469.295	6.87509e-10	2.92776e-10	2.65947e-10	
106.755	209474	5441.41	464.068	7.04861e-10	2.98433e-10	2.7207e-10	
107.686	204918	5569.12	458.79	7.22663e-10	3.04174e-10	2.78456e-10	
108.617	200327	5702.14	453.471	7.40873e-10	3.09986e-10	2.85107e-10	
109.548	195707	5840.54	448.124	7.59441e-10	3.15856e-10	2.92027e-10	
110.957	188674	6060.3	440.002	7.88102e-10	3.24817e-10	3.03015e-10	
111.31	186911	6117.16	437.971	7.95347e-10	3.27064e-10	3.05858e-10	
111.662	185147	6174.77	435.941	8.02616e-10	3.29313e-10	3.08738e-10	
112.015	183382	6233.13	433.913	8.09904e-10	3.31562e-10	3.11656e-10	
112.367	181617	6292.23	431.889	8.17207e-10	3.3381e-10	3.14612e-10	
112.719	179852	6352.07	429.867	8.24521e-10	3.36056e-10	3.17604e-10	
113.25	177197	6443.52	426.834	8.35541e-10	3.3943e-10	3.22176e-10	
113.78	174545	6536.58	423.813	8.46557e-10	3.42793e-10	3.26829e-10	
114.311	171897	6631.21	420.807	8.57554e-10	3.46141e-10	3.3156e-10	
114.841	169256	6727.36	417.819	8.68514e-10	3.49471e-10	3.36368e-10	
115.371	166623	6824.98	414.852	8.79419e-10	3.52777e-10	3.41249e-10	
115.902	163999	6924.01	411.907	8.90254e-10	3.56058e-10	3.46201e-10	
116.432	161387	7024.39	408.988	9.01e-10	3.59307e-10	3.5122e-10	
116.992	158642	7131.8	405.934	9.12235e-10	3.62703e-10	3.5659e-10	
117.553	155913	7240.54	402.914	9.23333e-10	3.66055e-10	3.62027e-10	
118.113	153203	7350.53	399.929	9.34275e-10	3.69361e-10	3.67527e-10	
118.673	150513	7461.67	396.981	9.45042e-10	3.72616e-10	3.73084e-10	
119.055	148695	7537.93	394.997	9.52263e-10	3.74801e-10	3.76896e-10	
119.436	146887	7614.64	393.032	9.5939e-10	3.76959e-10	3.80732e-10	
119.817	145091	7691.76	391.086	9.66418e-10	3.79089e-10	3.84588e-10	
120.761	140697	7884.25	386.355	9.83363e-10	3.84236e-10	3.94212e-10	
121.705	136383	8078.5	381.75	9.99611e-10	3.89189e-10	4.03925e-10	
122.65	132158	8273.96	377.276	1.01511e-09	3.93934e-10	4.13698e-10	
123.594	128028	8470.07	372.935	1.02982e-09	3.98458e-10	4.23503e-10	
124.069	125985	8568.92	370.798	1.03693e-09	4.00651e-10	4.28446e-10	
124.545	123969	8667.72	368.695	1.04382e-09	4.02784e-10	4.33386e-10	
125.02	121979	8766.4	366.625	1.05051e-09	4.04855e-10	4.3832e-10	
125.496	120017	8864.9	364.588	1.05698e-09	4.06866e-10	4.43245e-10	
125.948	118178	8958.3	362.682	1.06294e-09	4.08719e-10	4.47915e-10	
126.4	116364	9051.41	360.804	1.0687e-09	4.10515e-10	4.52571e-10	
126.852	114576	9144.19	358.956	1.07428e-09	4.12253e-10	4.5721e-10	
127.304	112814	9236.58	357.135	1.07967e-09	4.13934e-10	4.61829e-10	
128.369	108771	9452.35	352.955	1.09164e-09	4.1766e-10	4.72617e-10	
129.433	104877	9665.11	348.917	1.1026e-09	4.21061e-10	4.83256e-10	
130.498	101133	9874.36	345.012	1.11262e-09	4.24135e-10	4.93718e-10	
131.562	97539.6	10079.7	341.231	1.12173e-09	4.26885e-10	5.03983e-10	
132.37	94913.6	10232.5	338.437	1.12808e-09	4.28757e-10	5.11626e-10	
133.178	92373	10382.8	335.704	1.13397e-09	4.30446e-10	5.19138e-10	
133.985	89916.7	10530.3	333.026	1.13942e-09	4.31956e-10	5.26515e-10	
134.793	87543.4	10675	330.399	1.14446e-09	4.33288e-10	5.3375e-10	
135.162	86486.3	10740.2	329.214	1.14664e-09	4.33839e-10	5.37008e-10	
135.531	85446.1	10804.7	328.039	1.14874e-09	4.34354e-10	5.40236e-10	
135.9	84422.6	10868.7	326.872	1.15076e-09	4.34834e-10	5.43434e-10	
136.391	83086.1	10952.8	325.333	1.15334e-09	4.35417e-10	5.47642e-10	
136.882	81778.4	11035.9	323.808	1.1558e-09	4.3594e-10	5.51795e-10	
137.373	80499.2	11117.9	322.296	1.15814e-09	4.36401e-10	5.55894e-10	
138.133	78574.3	11242.6	319.981	1.16155e-09	4.37e-10	5.62132e-10	
138.893	76714.7	11364.8	317.693	1.1647e-09	4.37459e-10	5.68239e-10	
139.653	74918.5	11484.3	315.43	1.16762e-09	4.37783e-10	5.74217e-10	
140.413	73184.1	11601.4	313.188	1.17033e-09	4.37976e-10	5.80068e-10	
140.826	72267.4	11663.8	311.98	1.17171e-09	4.38028e-10	5.83192e-10	
141.238	71368.1	11725.6	310.777	1.17304e-09	4.38043e-10	5.86279e-10	
141.651	70485.8	11786.6	309.579	1.17431e-09	4.38022e-10	5.89329e-10	
142.952	67812.7	11974.2	305.835	1.178e-09	4.37725e-10	5.98711e-10	
143.277	67169.2	12020	304.905	1.17885e-09	4.37598e-10	6.01002e-10	
143.602	66535.3	12065.4	303.978	1.17967e-09	4.37451e-10	6.03272e-10	
143.928	65910.9	12110.4	303.053	1.18046e-09	4.37284e-10	6.05521e-10	
144.253	65295.8	12155	302.131	1.18123e-09	4.37097e-10	6.07749e-10	
144.689	64484.6	12214.2	300.896	1.18223e-09	4.36816e-10	6.10708e-10	
145.126	63689.6	12272.6	299.664	1.18318e-09	4.365e-10	6.1363e-10	
145.562	62910.3	12330.3	298.436	1.1841e-09	4.3615e-10	6.16516e-10	
146.706	60941.3	12478.3	295.232	1.18631e-09	4.35081e-10	6.23913e-10	
147.85	59072.1	12621.6	292.046	1.18829e-09	4.338e-10	6.31082e-10	
148.136	58619.8	12656.8	291.252	1.18875e-09	4.33448e-10	6.32839e-10	
148.422	58173.2	12691.7	290.459	1.1892e-09	4.33084e-10	6.34584e-10	
148.708	57732.4	12726.3	289.667	1.18964e-09	4.32708e-10	6.36315e-10	
148.994	57297.1	12760.7	288.876	1.19007e-09	4.32321e-10	6.38033e-10	
149.43	56643.7	12812.6	287.671	1.1907e-09	4.31707e-10	6.40629e-10	
149.866	56002.8	12863.9	286.467	1.1913e-09	4.31066e-10	6.43196e-10	
150.302	55374.1	12914.7	285.265	1.19188e-09	4.304e-10	6.45735e-10	
151.291	53993.5	13027.7	282.549	1.19311e-09	4.28799e-10	6.51385e-10	
152.279	52670.8	13138	279.84	1.19423e-09	4.27076e-10	6.56899e-10	
152.526	52348.7	13165.1	279.164	1.19449e-09	4.26628e-10	6.58257e-10	
152.774	52030.1	13192.2	278.489	1.19475e-09	4.26172e-10	6.59608e-10	
153.021	51714.8	13219	277.814	1.195e-09	4.25709e-10	6.6095e-10	
153.268	51402.8	13245.7	277.139	1.19525e-09	4.25239e-10	6.62285e-10	
153.683	50886	13290.2	276.007	1.19566e-09	4.24436e-10	6.6451e-10	
154.098	50378	13334.3	274.876	1.19605e-09	4.23613e-10	6.66714e-10	
154.513	49878.8	13378	273.746	1.19642e-09	4.22773e-10	6.68898e-10	
155.319	48932.6	13461.7	271.553	1.19711e-09	4.21089e-10	6.73086e-10	
156.126	48016.8	13544	269.364	1.19776e-09	4.19342e-10	6.77202e-10	
156.933	47130.1	13625	267.179	1.19836e-09	4.17534e-10	6.81251e-10	
157.739	46271.1	13704.7	264.997	1.19893e-09	4.15669e-10	6.85236e-10	
158.133	45861.3	13743.2	263.933	1.19919e-09	4.14738e-10	6.87159e-10	
158.527	45457.6	13781.4	262.87	1.19944e-09	4.13794e-10	6.89068e-10	
158.921	45059.9	13819.3	261.807	1.19969e-09	4.12837e-10	6.90964e-10	
159.523	44463.8	13876.6	260.186	1.20005e-09	4.11353e-10	6.93832e-10	
160.124	43881	13933.4	258.566	1.20039e-09	4.09841e-10	6.96671e-10	
160.726	43310.8	13989.6	256.948	1.20072e-09	4.08303e-10	6.9948e-10	
161.327	42752.9	14045.2	255.332	1.20103e-09	4.06738e-10	7.02262e-10	
161.709	42405.4	14080.2	254.308	1.20122e-09	4.05733e-10	7.04011e-10	
162.09	42062.6	14115	253.285	1.2014e-09	4.04719e-10	7.05749e-10	
162.471	41724.3	14149.6	252.262	1.20158e-09	4.03695e-10	7.07478e-10	
163.046	41222.3	14201.3	250.721	1.20184e-09	4.02131e-10	7.10067e-10	
163.621	40730.1	14252.7	249.18	1.20209e-09	4.00547e-10	7.12634e-10	
164.197	40247.3	14303.6	247.641	1.20233e-09	3.98943e-10	7.15181e-10	
164.772	39773.6	14354.2	246.103	1.20256e-09	3.97319e-10	7.17708e-10	
165.15	39466.8	14387.2	245.092	1.20271e-09	3.96239e-10	7.1936e-10	
165.528	39163.7	14420.1	244.081	1.20285e-09	3.95152e-10	7.21003e-10	
165.907	38864.2	14452.8	243.07	1.20299e-09	3.94056e-10	7.22639e-10	
166.473	38422.6	14501.5	241.559	1.20319e-09	3.92401e-10	7.25074e-10	
167.039	37988.7	14549.9	240.048	1.20338e-09	3.90729e-10	7.27493e-10	
167.605	37562.1	14597.9	238.538	1.20357e-09	3.8904e-10	7.29896e-10	
168.171	37142.8	14645.7	237.028	1.20374e-09	3.87333e-10	7.32285e-10	
168.545	36869.6	14677.1	236.031	1.20386e-09	3.86197e-10	7.33855e-10	
168.919	36599.3	14708.4	235.034	1.20397e-09	3.85053e-10	7.3542e-10	
169.293	36332	14739.6	234.037	1.20408e-09	3.83903e-10	7.36978e-10	
169.862	35930.6	14786.8	232.521	1.20424e-09	3.82139e-10	7.39339e-10	
170.431	35535.7	14833.7	231.005	1.20439e-09	3.80359e-10	7.41687e-10	
171	35146.8	14880.5	229.489	1.20454e-09	3.78564e-10	7.44024e-10	
171.477	34825.6	14919.5	228.22	1.20466e-09	3.77048e-10	7.45973e-10	
171.954	34508.4	14958.3	226.95	1.20477e-09	3.75521e-10	7.47915e-10	
172.43	34195.1	14997	225.68	1.20489e-09	3.73984e-10	7.4985e-10	
172.944	33861.9	15038.5	224.312	1.205e-09	3.72316e-10	7.51927e-10	
173.457	33532.9	15079.9	222.943	1.20512e-09	3.70636e-10	7.53997e-10	
173.971	33208.1	15121.2	221.574	1.20523e-09	3.68944e-10	7.56061e-10	
174.47	32896.2	15161.2	220.243	1.20533e-09	3.67287e-10	7.5806e-10	
174.969	32588	15201.1	218.911	1.20543e-09	3.6562e-10	7.60054e-10	
175.469	32283.3	15240.8	217.579	1.20553e-09	3.63941e-10	7.62042e-10	
175.998	31964.1	15282.9	216.165	1.20563e-09	3.62148e-10	7.64146e-10	
176.528	31648.6	15324.9	214.751	1.20573e-09	3.60343e-10	7.66244e-10	
177.057	31336.9	15366.7	213.336	1.20582e-09	3.58526e-10	7.68337e-10	
177.54	31056	15404.8	212.046	1.2059e-09	3.5686e-10	7.70239e-10	
178.022	30778.1	15442.8	210.756	1.20598e-09	3.55184e-10	7.72138e-10	
178.504	30503	15480.7	209.465	1.20606e-09	3.53498e-10	7.74033e-10	
178.996	30225.2	15519.3	208.147	1.20614e-09	3.51769e-10	7.75963e-10	
179.488	29950.3	15557.8	206.828	1.20622e-09	3.50029e-10	7.77889e-10	
179.98	29678	15596.3	205.509	1.20629e-09	3.48279e-10	7.79813e-10	
180.461	29414.1	15633.9	204.216	1.20636e-09	3.46557e-10	7.81694e-10	
180.942	29152.6	15671.4	202.923	1.20643e-09	3.44824e-10	7.83572e-10	
181.423	28893.6	15709	201.628	1.2065e-09	3.43082e-10	7.85449e-10	
181.903	28637.4	15746.4	200.336	1.20656e-09	3.41334e-10	7.8732e-10	
182.383	28383.4	15783.8	199.042	1.20662e-09	3.39577e-10	7.8919e-10	
182.863	28131.6	15821.2	197.747	1.20669e-09	3.37809e-10	7.91058e-10	
183.324	27892.1	15857	196.503	1.20674e-09	3.36105e-10	7.92849e-10	
183.784	27654.5	15892.8	195.258	1.2068e-09	3.34392e-10	7.9464e-10	
184.245	27418.8	15928.6	194.012	1.20685e-09	3.3267e-10	7.9643e-10	
184.698	27188.3	15963.9	192.784	1.20691e-09	3.30965e-10	7.98193e-10	
185.152	26959.6	15999.1	191.554	1.20696e-09	3.29251e-10	7.99956e-10	
185.605	26732.5	16034.4	190.323	1.20701e-09	3.27529e-10	8.0172e-10	
186.039	26517.1	16068.1	189.146	1.20705e-09	3.25877e-10	8.03404e-10	
186.472	26303.2	16101.8	187.967	1.2071e-09	3.24216e-10	8.05089e-10	
186.905	26090.7	16135.5	186.788	1.20714e-09	3.22548e-10	8.06774e-10	
187.327	25885.3	16168.3	185.639	1.20719e-09	3.20917e-10	8.08415e-10	
187.748	25681.1	16201.1	184.489	1.20723e-09	3.19279e-10	8.10056e-10	
188.17	25478.2	16234	183.337	1.20727e-09	3.17633e-10	8.11698e-10	
188.569	25286.9	16265.1	182.244	1.20731e-09	3.16066e-10	8.13256e-10	
188.969	25096.7	16296.3	181.15	1.20734e-09	3.14493e-10	8.14815e-10	
189.369	24907.6	16327.5	180.055	1.20738e-09	3.12913e-10	8.16375e-10	
189.752	24727.1	16357.5	179.003	1.20741e-09	3.11391e-10	8.17873e-10	
